# sep	energy	f1x	f1y	f1z	f2x	f2y	f2z	t1x	t1y	t1z	t2x	t2y	t2z
10.100	154920.0	-4.26325641456e-14	-918061.152822	-4.26325641456e-14	4.99600361081e-16	918061.15282	-1.27897692437e-13	1.26310624182e-08	0.00218790931922	-2.72848410532e-12	5.5566147239e-09	0.00218790931744	-2.57505128332e-12
10.200	87302.8	2.62900812231e-13	-485115.158575	-3.97903932026e-13	3.94684285254e-13	485115.158575	-7.28306304154e-14	7.01402314007e-09	-0.0125174847099	-5.00222085975e-12	-6.64914523441e-09	-0.012517484709	2.3265833704e-12
10.300	50868.0	-5.68434188608e-14	-267460.97544	-1.70530256582e-13	-2.85327317329e-14	267460.975441	1.11910480882e-13	1.36788003147e-09	-0.00762891841032	-9.09494701773e-13	1.36390099215e-09	-0.00762891840167	2.80619971704e-12
10.400	30434.5	-2.48689957516e-14	-152985.334537	-1.35003119794e-13	-5.45674616603e-14	152985.334538	1.13686837722e-13	-1.89174897969e-10	0.00592123379488	-2.38742359215e-12	-1.35193545248e-09	0.00592123379452	-3.14348547192e-12
10.500	18572.7	4.97379915032e-14	-90317.1383734	-2.39808173319e-13	2.3758772727e-14	90317.1383842	1.24344978758e-14	1.81898940355e-10	0.013223144098	2.04636307899e-12	-2.58722820945e-10	0.0132231441006	3.58824081559e-13
10.600	11481.3	-7.1054273576e-15	-54773.3793652	-2.0694557179e-13	-1.38999922683e-13	54773.3793654	-1.7763568394e-13	3.63797880709e-12	-0.00767422528043	1.19371179608e-12	3.01554337057e-10	-0.00767422528511	-1.43440814782e-13
10.700	7134.52	-2.30926389122e-14	-33973.001935	1.45439216226e-13	-9.12603326242e-14	33973.0019354	-1.59872115546e-13	-4.11091605201e-10	0.00632917242206	5.68434188608e-13	6.7061023401e-10	0.0063291724191	-7.97140131681e-14
10.800	4414.95	-9.7699626167e-15	-21460.8556644	1.60316204756e-13	-4.84057238737e-14	21460.8556774	3.73034936274e-14	-1.01863406599e-10	-0.0038308815615	-3.41060513165e-13	-2.50111042988e-11	-0.00383088155984	-2.83328915884e-13
10.900	2685.33	-3.99680288865e-14	-13751.1305676	9.05941988094e-14	2.44249065418e-15	13751.130568	2.14939177567e-13	-2.72848410532e-11	0.00361056152121	-1.13686837722e-13	2.01282546186e-10	0.00361056151769	-8.32667268469e-14
11.000	1571.18	5.77315972805e-15	-8900.1448636	1.95399252334e-13	-3.82471831983e-14	8900.144864	5.86197757002e-14	-2.68300937023e-11	-0.00160802222516	1.4921397451e-13	-4.1467274059e-11	-0.00160802222495	2.55351295664e-14
11.100	848.909	4.81836792687e-14	-5793.2025446	1.84741111298e-13	4.84057238737e-14	5793.2025452	-5.3290705182e-15	4.54747350886e-12	0.00208656275943	1.42108547152e-14	-4.49631443189e-11	0.00208656276248	-1.28785870857e-13
11.200	378.357	1.28119737042e-13	-3772.5665514	7.1054273576e-15	-3.19744231092e-14	3772.5665516	-1.01252339846e-13	5.91171556152e-12	-0.00260961250319	-7.46069872548e-14	2.67732502834e-11	-0.00344547649614	-2.3758772727e-14
11.300	73.5884	-1.04360964315e-14	-2442.5507432	-1.22568621919e-13	6.7446048746e-14	2442.5507392	1.59872115546e-14	-2.4101609597e-11	0.000297999179779	-2.22044604925e-13	-2.39879227593e-11	0.000148505581976	1.55431223448e-15
11.400	-122.619	-7.1054273576e-15	-1558.0836328	6.39488462184e-14	-9.7699626167e-15	1558.0836328	-1.22568621919e-13	1.00044417195e-11	0.000397503460928	-2.00728322852e-13	4.97379915032e-12	0.000397503457336	-7.32747196253e-15
11.500	-246.456	-4.15709133783e-14	-965.7615358	2.27373675443e-13	4.76285677564e-14	965.7615318	-1.35003119794e-13	2.60342858383e-11	0.00171844947897	-8.26005930321e-14	1.81898940355e-11	0.00171844947764	1.88737914186e-14
11.600	-321.378	-3.24740234703e-14	-567.5525704	-1.68753899743e-13	4.59632332195e-14	567.5525724	3.19744231092e-14	-7.21911419532e-12	0.0022187689792	-9.54791801178e-14	-3.69482222595e-12	0.00221876898015	-6.66133814775e-16
11.700	-362.892	9.52016243616e-15	-299.9050264	-2.11386463889e-13	6.05626659933e-14	299.9050284	-1.98951966013e-13	7.56017470849e-12	-0.00106866987736	-9.05941988094e-14	-1.62003743753e-12	-0.00106866987313	-1.7763568394e-15
11.800	-382.69	-6.05626659933e-14	-120.3714814	1.45661260831e-13	1.18238752123e-14	120.3714834	-2.13162820728e-14	8.29913915368e-12	-0.00495015365865	-9.25926002537e-14	-4.54747350886e-12	-0.00495015366166	8.881784197e-16
11.900	-387.883	-1.848521336e-14	-0.9991402	-9.05941988094e-14	2.16493489802e-15	0.9991382	-9.94759830064e-14	1.05160324892e-12	0.00478781793699	-9.32587340685e-14	-5.40012479178e-13	0.00478781793987	5.08482145278e-14
12.000	-382.757	1.44328993201e-15	76.715508	-1.7763568394e-15	-1.43218770177e-14	-76.71551	-5.3290705182e-14	-4.51905179943e-12	-0.011312037643	-1.21236354289e-13	3.32534000336e-12	-0.0113120376388	3.77475828373e-14
12.100	-371.104	-4.51860771022e-14	125.9114572	2.48689957516e-13	3.0975222387e-14	-125.9114532	-4.26325641456e-14	-7.7591266745e-12	-0.00203302256012	-5.83977310953e-14	-7.95807864051e-13	-0.00203302255963	8.65973959208e-15
12.200	-356.56	-4.94049245958e-15	155.9486074	3.67705865756e-13	6.32827124036e-15	-155.9486074	-3.41060513165e-13	7.95807864051e-12	0.00313658478037	-7.4162898045e-14	-3.41060513165e-13	0.00313658478065	1.11022302463e-15
12.300	-339.614	-6.99995617026e-14	172.42325	1.31450406116e-13	-1.22013510406e-13	-172.42325	-6.03961325396e-14	1.36424205266e-12	0.00461646542114	-9.68114477473e-14	-3.52429196937e-12	0.00461646542152	-1.70974345792e-14
12.400	-321.587	4.70179450929e-14	179.68856202	4.97379915032e-14	-1.66533453694e-15	-179.68855602	1.10134124043e-13	4.73221462016e-12	0.000777943819365	-1.38111744263e-13	-6.62225829728e-12	0.000777943818775	3.73034936274e-14
12.500	-303.088	5.27355936697e-15	180.66654786	2.3803181648e-13	6.77236045021e-15	-180.66642186	2.27373675443e-13	-2.62900812231e-12	-0.000194628401871	-7.1054273576e-14	-8.52651282912e-14	-0.000194628402042	2.62012633812e-14
12.600	-284.828	-4.79061235126e-14	177.5629435	9.7699626167e-14	3.03090885723e-14	-177.5629435	-7.1054273576e-15	-9.37916411203e-13	0.00237997511822	-7.66053886991e-14	4.71800376545e-12	0.00237997511782	2.88657986403e-15
12.700	-266.637	5.2569060216e-14	171.58206928	3.19744231092e-14	6.672440378e-14	-171.58206728	-1.84741111298e-13	-1.13686837722e-13	-0.00236344690013	-9.92539384015e-14	-1.02318153949e-12	-0.00236344690194	-1.46549439251e-14
12.800	-249.346	-3.73034936274e-14	164.03332088	-8.70414851306e-14	6.91668944341e-14	-164.03319488	-6.39488462184e-14	-6.2669869294e-12	-0.00262031428059	-9.43689570931e-14	1.19371179608e-12	-0.00262031428332	-2.75335310107e-14
12.900	-232.614	3.38062910998e-14	155.44262884	-5.68434188608e-14	8.32667268469e-15	-155.44262884	-2.16715534407e-13	4.16378043155e-12	-9.47703402474e-05	-1.04360964315e-13	-3.21165316564e-12	-9.47703388903e-05	-1.64313007645e-14
13.000	-217.157	5.30686605771e-14	146.51930976	2.68229882749e-13	-3.20854454117e-14	-146.51930976	-7.46069872548e-14	3.59534624295e-12	-0.000742981138313	-8.48210390814e-14	1.08002495836e-12	-0.000742981138799	4.21884749358e-15
13.100	-202.417	5.17363929475e-14	137.3914003	1.81188397619e-13	6.33937347061e-14	-137.3914003	-2.52242671195e-13	-3.66640051652e-12	-0.00929165198075	-1.0325074129e-13	-2.81374923361e-12	-0.009291651979	-1.68753899743e-14
13.200	-188.834	-5.44009282066e-15	128.50073012	3.48165940522e-13	-5.82867087928e-14	-128.50073412	-8.881784197e-14	3.97903932026e-12	-0.00413446571801	-1.10578213253e-13	-7.1054273576e-13	-0.00413446571909	-2.44249065418e-15
13.300	-175.927	7.93809462607e-14	119.8140136	-2.70006239589e-13	-2.33146835171e-15	-119.8140116	-3.23296944771e-13	2.78532752418e-12	-0.00470978039884	-9.7699626167e-14	-5.68434188608e-14	-0.00470978039695	-7.1054273576e-15
13.400	-163.898	-7.78821451775e-14	111.48389838	-2.78888023786e-13	3.85247389545e-14	-111.48389638	-2.30926389122e-13	1.56319401867e-13	-0.000935307957974	-1.11910480882e-13	-4.54747350886e-12	-0.000935307960589	-1.22124532709e-14
13.500	-152.925	1.05915276549e-13	103.67404622	-3.12638803734e-13	3.76365605348e-14	-103.67404422	-2.30926389122e-13	3.78008735424e-12	-0.00595187764039	-1.23456800338e-13	-2.50111042988e-12	-0.00595187763943	-1.97619698383e-14
13.600	-142.606	-2.55351295664e-15	96.27178064	-1.52766688188e-13	8.95949980873e-14	-96.27178064	-1.31450406116e-13	-5.94013727095e-12	-0.00742492927713	-9.92539384015e-14	5.62749846722e-12	-0.00742492927949	-5.44009282066e-15
13.700	-132.972	-4.49640324973e-15	89.32629696	1.91846538655e-13	-4.94049245958e-14	-89.32629896	-1.52766688188e-13	-3.79429820896e-12	0.00335854609953	-1.06470388062e-13	-3.52429196937e-12	0.00335854610134	-1.44328993201e-14
13.800	-123.706	8.881784197e-16	82.74357142	-1.13686837722e-13	2.55351295664e-15	-82.74357142	-9.59232693276e-14	-1.53477230924e-12	0.000677465919971	-8.93729534823e-14	-1.02318153949e-12	0.000677465917818	-1.33226762955e-14
13.900	-115.586	3.2640556924e-14	76.77733614	-9.23705556488e-14	1.05471187339e-14	-76.77733414	-8.17124146124e-14	-3.32534000336e-12	-0.0013171726172	-9.53681578153e-14	4.03588273912e-12	-0.00131717261658	-1.88737914186e-15
14.000	-107.481	-7.37188088351e-14	71.02408678	2.6645352591e-14	5.80646641879e-14	-71.02408678	-7.46069872548e-14	-6.8212102633e-13	0.00570596472323	-9.1704421834e-14	-7.38964445191e-13	0.00570596472195	5.55111512313e-16
14.100	-100.144	2.00395255945e-14	65.76526974	-1.50990331349e-13	-3.56381590905e-14	-65.76526974	-1.38555833473e-13	-3.21165316564e-12	-0.00444806952103	-9.60342916301e-14	4.51905179943e-12	-0.00444806952049	-1.87627691162e-14
14.200	-93.5228	4.68514116392e-14	60.9558737	3.5527136788e-14	-1.60982338571e-14	-60.9558717	1.06581410364e-14	-5.5138116295e-12	0.00561205630042	-9.61453139325e-14	-2.84217094304e-13	0.00561205629958	-1.73194791842e-14
14.300	-87.3629	-2.69784194984e-14	56.50174368	2.84217094304e-14	2.29816166097e-14	-56.50174568	-8.881784197e-14	-2.245315045e-12	0.00219002938204	-9.59232693276e-14	1.81898940355e-12	0.00219002938093	2.25514051877e-17
14.400	-81.3537	-3.88578058619e-15	52.27291792	4.4408920985e-14	-1.12132525487e-14	-52.27291792	-7.46069872548e-14	-3.21165316564e-12	-0.00333437885981	-9.51461132104e-14	-2.27373675443e-12	-0.00333437885757	-2.87964097012e-16
14.500	-75.9912	1.31561428418e-14	48.44894802	6.57252030578e-14	3.58602036954e-14	-48.44894802	-9.59232693276e-14	-2.98427949019e-12	-0.00319469856235	-9.50350909079e-14	1.13686837722e-12	-0.00319469856143	-4.07660016855e-16
14.600	-70.7617	4.47974990436e-14	44.84647474	1.79412040779e-13	1.09912079438e-14	-44.84647274	-1.81188397619e-13	-2.27373675443e-13	-0.00158557045962	-9.46465128493e-14	-1.62003743753e-12	-0.00158557045842	-3.1918911958e-16
14.700	-66.1883	6.73350264435e-14	41.61507728	2.13162820728e-14	1.80966353014e-14	-41.61507728	-2.9487523534e-13	1.02318153949e-12	0.00405523646088	-9.47575351518e-14	6.8212102633e-13	0.00405523646151	1.30104260698e-16
14.800	-61.9278	1.84297022088e-14	38.63830582	-2.52242671195e-13	1.72084568817e-14	-38.63830582	-3.58824081559e-13	1.10844666779e-12	-0.00216264275912	-9.46465128493e-14	-2.67164068646e-12	-0.00216264275895	-3.1485231089e-16
14.900	-57.7738	5.7842619583e-14	35.80600284	-3.12638803734e-13	7.31636973228e-14	-35.80600284	-3.16191517413e-13	-1.67688085639e-12	0.00231441453897	-9.46465128493e-14	-5.11590769747e-12	0.00231441453963	5.11743425413e-17
15.000	-54.2468	1.31172850359e-13	33.32476412	-3.2507330161e-13	8.20454815198e-14	-33.32476412	-3.23296944771e-13	3.69482222595e-13	0.000639829340201	-9.4813046303e-14	-4.26325641456e-13	0.0006398293404	1.12757025938e-17
15.100	-50.5425	-2.19824158876e-14	30.84778516	-1.20792265079e-13	7.49400541622e-14	-30.84780516	-2.3803181648e-13	-5.96855898038e-13	-0.00137771559913	-9.44799793956e-14	-4.06430444855e-12	-0.00137771559929	1.5092094241e-16
15.200	-47.2763	3.49165141245e-14	28.628622922	-2.00728322852e-13	1.05138120432e-13	-28.628622922	-1.172395514e-13	4.74642547488e-12	0.00195510240212	-9.35362898247e-14	9.37916411203e-13	0.00195510240377	2.32019264912e-16
15.300	-44.3348	-5.14588371914e-14	26.632156176	-3.23296944771e-13	8.20454815198e-14	-26.632156176	-2.23820961764e-13	6.25277607469e-13	-0.00264789227781	-9.47020240005e-14	-1.02318153949e-12	-0.00264789227793	1.45283091113e-16
15.400	-41.3008	4.05231403988e-14	24.660170942	1.7763568394e-15	1.72084568817e-14	-24.660170942	-6.75015598972e-14	3.97903932026e-12	0.00159762166163	-9.44244682444e-14	-1.02318153949e-12	0.00159762166351	1.25333771139e-16
15.500	-38.7741	1.21014309684e-14	22.963177298	-1.40332190313e-13	3.33066907388e-16	-22.963175298	-1.45661260831e-13	2.35900188272e-12	-4.87071554005e-05	-9.47575351518e-14	4.46220838057e-12	-4.87071558268e-05	-2.21177243187e-17
15.600	-36.2681	1.08468789506e-13	21.320086926	-1.40332190313e-13	6.75015598972e-14	-21.320086926	-1.1901590824e-13	2.21689333557e-12	-0.00314724336107	-9.47020240005e-14	-2.16004991671e-12	-0.00314724335874	9.36750677027e-17
15.700	-33.7776	1.28785870857e-14	19.728032	-1.38555833473e-13	2.30926389122e-14	-19.728032	-1.27897692437e-13	2.27373675443e-12	-0.00399287395794	2.01394539934e-10	-1.74082970261e-12	-0.0039928739605	-1.11022302463e-16
15.800	-31.3783	-4.09117184574e-14	18.258586	-3.23296944771e-13	-7.54951656745e-15	-18.2585860002	-1.13686837722e-13	2.87059265247e-12	0.000734700341116	2.01395206068e-10	-1.2576606423e-12	0.000734700341582	0.0
15.900	-29.4038	2.85327317329e-14	16.995442	5.86197757002e-14	1.04360964315e-13	-16.995442	-1.81188397619e-13	1.73372427525e-12	-0.00190998949705	2.01394984023e-10	-8.95283847058e-13	-0.00190998949839	-3.46944695195e-18
16.000	-27.5847	-1.95399252334e-14	15.827402	8.52651282912e-14	-4.35207425653e-14	-15.8274020002	-2.16715534407e-13	4.23483470513e-12	-0.00102366839973	2.0139506729e-10	2.07478478842e-12	-0.00102366839948	3.46944695195e-18
16.100	-25.9847	5.73985303731e-14	14.792698	-7.9936057773e-14	4.66293670343e-14	-14.7926980002	-2.09610107049e-13	-1.90425453184e-12	-0.000974258699262	2.0139506729e-10	-7.95807864051e-13	-0.000974258697653	3.46944695195e-18
16.200	-24.3405	3.74145159299e-14	13.75981	-3.19744231092e-13	7.77156117238e-14	-13.75981	-1.27897692437e-13	-1.39266376209e-12	0.00184270770037	2.0139506729e-10	-2.55795384874e-12	0.00184270770177	0.0
16.300	-22.9394	1.44328993201e-15	12.869528	-1.58095758707e-13	-8.12683254026e-14	-12.8695280002	-2.20268248086e-13	4.68958205602e-12	0.00258622199973	2.01395511379e-10	-3.14770431942e-12	0.00258622200269	0.0
16.400	-20.8532	1.44884104714e-14	11.729616	-1.95399252334e-13	1.33226762955e-14	-11.7296159997	-1.13686837722e-13	2.87059265247e-12	-0.0018257163938	2.01395511379e-10	2.10320649785e-12	-0.00182571639897	0.0
16.500	-19.5764	2.93653990013e-14	10.926744	-1.79412040779e-13	6.43929354283e-14	-10.9267440002	-1.06581410364e-13	2.52953213931e-12	0.000407014302031	2.01394567689e-10	-1.79056769412e-12	0.000407014302482	0.0
16.600	-18.3416	-1.06581410364e-14	10.17049	-7.1054273576e-15	-5.77315972805e-14	-10.1704900002	0.0	1.81898940355e-12	0.0022507611	2.01394567689e-10	-3.01270119962e-12	0.00225076110118	-5.55111512313e-17
16.700	-17.2499	6.38378239159e-14	9.49453799995	-1.06581410364e-14	8.08242361927e-14	-9.494538	-2.48689957516e-14	2.47268872045e-12	-0.000386894300981	2.01394900756e-10	-1.81188397619e-12	-0.000386894300306	-1.11022302463e-16
16.800	-15.8681	3.38618022511e-14	8.70708599995	-1.88293824976e-13	-7.32747196253e-14	-8.70708600017	-1.172395514e-13	6.28119778412e-12	-0.00186398739676	2.01394956267e-10	-3.21165316564e-12	-0.00186398740001	0.0
16.900	-15.0242	-3.63042929052e-14	8.17545599995	-1.79412040779e-13	-5.41788836017e-14	-8.17545599966	-1.172395514e-13	4.14956957684e-12	0.00259758160169	2.01394789734e-10	1.64135371961e-12	0.00259758160007	1.73472347598e-18
17.000	-13.8721	1.50435219837e-14	7.51769999995	-1.82964754458e-13	8.03801469829e-14	-7.51770000017	-1.24344978758e-13	2.84217094304e-12	6.42492028362e-05	2.01394789734e-10	-4.90274487674e-13	6.42492016425e-05	0.0
17.100	-12.7932	1.57096557984e-14	6.91949999995	5.50670620214e-14	-8.83737527602e-14	-6.91950000017	-2.09610107049e-13	2.30215846386e-12	0.000493615203723	2.01394678712e-10	1.7763568394e-12	0.000493615200497	0.0
17.200	-11.8415	1.75415237891e-14	6.38745999995	-2.78888023786e-13	7.1054273576e-15	-6.38746	-2.09610107049e-13	3.58113538823e-12	0.00209648440281	2.01394678712e-10	-5.68434188608e-13	0.00209648440122	2.77555756156e-17
17.300	-11.2222	-3.4805491822e-14	6.00553999995	-2.75335310107e-13	8.52651282912e-14	-6.00554	-2.02504679692e-13	2.47268872045e-12	0.00123182880516	2.01394678712e-10	1.5916157281e-12	0.00109083720381	-2.68882138776e-17
17.400	-10.2893	9.37583344296e-14	5.50013999995	-1.63424829225e-13	1.90958360236e-13	-5.50013999966	-1.10134124043e-13	5.68434188608e-13	0.000544037501673	2.01394456667e-10	3.24007487507e-12	0.000544037500422	-8.41340885849e-17
17.500	-9.40454	5.05151476204e-15	5.01635999995	-1.59872115546e-13	4.78506123613e-14	-5.01636	-1.172395514e-13	3.04112290905e-12	0.00109058370401	2.01394262378e-10	1.13686837722e-13	0.00109058370565	-8.67361737988e-19
17.600	-8.77375	4.32431868091e-14	4.65329999995	-1.81188397619e-13	3.27515792264e-14	-4.65330000034	-1.1901590824e-13	-4.26325641456e-13	-7.52953992489e-05	2.01394262378e-10	5.68434188608e-13	-7.52953986449e-05	1.38777878078e-17
17.700	-8.18425	1.23789867246e-14	4.32355999995	-1.42108547152e-14	5.36237720894e-14	-4.32356	-1.95399252334e-14	3.43902684108e-12	-0.00112460629724	2.01394401156e-10	1.42108547152e-13	-0.00112460630045	-1.73472347598e-18
17.800	-7.62276	-1.0325074129e-14	4.00493999995	-1.95399252334e-14	3.44169137634e-15	-4.00494	-2.30926389122e-14	3.12638803734e-12	-0.00304206689853	2.01394401156e-10	5.68434188608e-13	-0.00304206689786	-1.73472347598e-18
17.900	-7.02135	-1.84297022088e-14	3.67321999995	-1.59872115546e-14	8.87068196676e-14	-3.67321999966	-2.30926389122e-14	1.36424205266e-12	-0.00111042689708	2.01394460136e-10	5.68434188608e-13	-0.00111042689637	0.0
18.000	-6.45366	6.10067552032e-14	3.36811999995	-1.82964754458e-13	6.29496454962e-14	-3.36812	-1.26121335597e-13	3.04112290905e-12	0.00139938370247	2.01394460136e-10	-3.41060513165e-13	0.00139938370295	0.0
18.100	-5.90969	-3.71924713249e-14	3.06869999995	-3.5527136788e-15	5.14033260401e-14	-3.06870000034	-2.13162820728e-14	5.68434188608e-14	-0.00142739629757	2.01394585037e-10	2.52953213931e-12	-3.16502984816e-05	0.0
18.200	-5.46882	5.78981307342e-14	2.82635999995	-1.84741111298e-13	1.45439216226e-14	-2.82636	-1.13686837722e-13	1.3073986338e-12	0.000649339501429	2.01394668303e-10	4.17799128627e-12	0.000649339500384	0.0
18.300	-4.98114	2.18713935851e-14	2.56577999995	-1.98951966013e-13	5.09592368303e-14	-2.56578	-4.61852778244e-14	1.22213350551e-12	0.00131039120101	2.01394682181e-10	-3.41060513165e-13	0.00131039120144	-4.85722573274e-17
18.400	-4.48669	4.35207425653e-14	2.31423999995	-1.90070181816e-13	7.8492767841e-14	-2.31423999966	-6.03961325396e-14	2.55795384874e-12	0.0026549904012	2.01394685651e-10	2.52953213931e-12	0.00265499040192	-1.56125112838e-17
18.500	-4.22546	2.40918396344e-14	2.16309999995	-2.00728322852e-13	-2.33146835171e-15	-2.1631	-6.03961325396e-14	3.24007487507e-12	-0.000550269397635	2.01394685651e-10	1.67688085639e-12	-0.000550269399426	0.0
18.600	-3.80496	2.63677968348e-14	1.94629999995	-1.93622895495e-13	8.20454815198e-14	-1.94630000034	-1.4921397451e-13	3.52429196937e-12	0.000582761202502	2.01394699528e-10	-2.21689333557e-12	0.000582761201642	-2.25514051877e-17
18.700	-3.40728	-6.54476473017e-14	1.74041999995	-3.07309733216e-13	1.397770788e-13	-1.74042	-2.98427949019e-13	1.56319401867e-12	-0.000395545998717	2.01394734223e-10	-2.8990143619e-12	-0.000395545999325	1.1622647289e-16
18.800	-3.16984	4.81836792687e-14	1.61373999995	-3.2507330161e-13	5.62883073485e-14	-1.61374	-2.9487523534e-13	1.36424205266e-12	0.000987441502737	2.01394730753e-10	-1.25055521494e-12	0.00098744150209	-6.93889390391e-18
18.900	-2.83326	2.15383266777e-14	1.43889999995	-3.21520587931e-13	6.78346268046e-14	-1.43889999966	-2.98427949019e-13	4.46220838057e-12	0.000930738801799	2.01394772387e-10	1.13686837722e-12	0.000930738799227	5.20417042793e-18
